Wavelength (nm),14k,11k,8k,5k,3k
190,-1.77E-02,4.91E-03,5.82E-04,-1.02E-02,2.05E-02
191,-1.08E-02,1.09E-02,4.69E-03,-1.66E-02,0.018786272
192,-1.57E-02,1.04E-02,1.22E-02,-0.006433971,8.17E-03
193,-2.32E-02,-1.08E-03,6.79E-03,-0.010381196,6.08E-03
194,-2.67E-02,1.87E-02,1.34E-02,9.08E-03,1.72E-02
195,-2.96E-02,1.50E-02,3.61E-03,7.56E-03,-5.64E-03
196,-1.50E-02,2.81E-02,1.98E-02,1.99E-02,1.00E-02
197,-2.22E-02,2.65E-02,1.42E-02,2.27E-02,1.80E-02
198,-2.02E-02,3.99E-02,2.25E-02,3.35E-02,1.74E-02
199,-1.51E-02,2.73E-02,1.81E-02,3.46E-02,9.45E-03
200,-2.59E-02,8.61E-03,5.49E-03,1.86E-02,-2.68E-03
201,-3.16E-03,2.47E-02,1.90E-02,3.13E-02,8.93E-03
202,-2.54E-03,2.44E-02,1.23E-02,0.022121247,3.28E-02
203,2.67E-02,2.64E-02,0.025756996,4.22E-02,0.06504925
204,3.97E-02,2.23E-02,1.88E-02,3.25E-02,5.45E-02
205,4.91E-02,1.02E-02,2.98E-02,4.19E-02,0.034439642
206,3.91E-02,6.92E-03,2.50E-02,2.05E-02,2.43E-02
207,2.41E-02,4.45E-03,9.87E-03,2.21E-02,1.68E-02
208,2.92E-02,1.15E-02,1.00E-02,1.67E-02,2.96E-02
209,0.029598441,1.74E-02,1.41E-02,2.52E-02,3.10E-02
210,2.66E-02,1.09E-02,8.15E-03,2.32E-02,2.44E-02
211,2.72E-02,8.87E-03,1.24E-02,2.25E-02,2.68E-02
212,2.35E-02,4.58E-03,8.70E-03,2.19E-02,2.79E-02
213,1.46E-02,1.80E-03,7.52E-03,1.95E-02,2.53E-02
214,1.31E-02,-9.34E-04,6.34E-03,1.39E-02,0.021350876
215,1.09E-02,-1.09E-03,6.97E-03,0.012720417,2.19E-02
216,6.30E-03,-3.23E-03,1.57E-03,6.58E-03,1.80E-02
217,5.09E-03,-4.23E-03,-8.73E-04,4.56E-03,1.23E-02
218,4.04E-03,-3.48E-03,3.48E-04,3.54E-03,1.41E-02
219,7.20E-03,-4.49E-03,1.07E-03,6.60E-03,1.35E-02
220,4.89E-03,7.44E-04,0.002887592,6.71E-03,1.65E-02
221,5.84E-03,4.08E-03,7.83E-03,1.18E-02,1.80E-02
222,4.35E-03,3.25E-03,1.02E-02,0.013648787,1.76E-02
223,2.38E-03,2.94E-03,7.53E-03,1.15E-02,1.41E-02
224,1.25E-03,2.43E-03,7.87E-03,1.00E-02,0.015710533
225,1.45E-03,2.09E-03,5.00E-03,7.57E-03,0.013554425
226,1.64E-03,-1.01E-03,5.43E-03,7.59E-03,1.49E-02
227,1.86E-03,2.30E-04,4.17E-03,8.15E-03,1.47E-02
228,-2.12E-04,-2.10E-03,3.26E-03,7.30E-03,1.38E-02
229,-1.61E-03,-2.05E-03,3.81E-03,7.56E-03,1.32E-02
230,-7.43E-04,-1.84E-03,4.42E-03,9.73E-03,1.37E-02
231,7.98E-04,-1.02E-03,4.56E-03,1.12E-02,1.44E-02
232,4.87E-04,-1.17E-03,5.10E-03,1.18E-02,0.015020082
233,2.00E-03,-1.35E-03,6.21E-03,1.29E-02,1.62E-02
234,2.27E-03,-1.50E-03,5.53E-03,1.20E-02,1.51E-02
235,4.20E-04,-2.29E-03,5.51E-03,1.13E-02,1.49E-02
236,2.78E-05,-2.94E-03,4.80E-03,1.03E-02,1.43E-02
237,4.68E-04,-2.49E-03,6.37E-03,0.011173316,1.53E-02
238,-3.89E-04,-1.29E-03,6.67E-03,1.04E-02,1.53E-02
239,-4.69E-04,-5.02E-04,8.45E-03,0.010908748,1.57E-02
240,-1.33E-03,-1.47E-03,6.89E-03,8.32E-03,1.55E-02
241,-1.67E-03,-4.24E-04,5.61E-03,7.47E-03,0.012997189
242,-1.90E-03,-1.02E-03,5.77E-03,5.87E-03,9.93E-03
243,-1.56E-03,7.56E-04,5.20E-03,5.62E-03,8.94E-03
244,-2.85E-03,-1.21E-03,4.20E-03,4.42E-03,7.90E-03
245,-3.36E-03,5.84E-04,3.44E-03,4.10E-03,7.08E-03
246,-9.98E-04,1.36E-03,3.46E-03,5.38E-03,7.32E-03
247,-1.87E-03,8.44E-04,3.99E-03,4.51E-03,9.06E-03
248,-2.49E-03,1.39E-03,4.11E-03,4.90E-03,8.19E-03
249,-2.78E-03,-8.01E-05,3.01E-03,3.17E-03,7.35E-03
250,-2.56E-03,1.02E-03,2.76E-03,3.39E-03,8.89E-03
251,-3.22E-03,-9.25E-04,1.59E-03,2.53E-03,7.25E-03
252,-3.32E-03,-7.39E-06,1.03E-03,2.39E-03,7.81E-03
253,-2.54E-03,-1.61E-03,8.69E-04,7.61E-04,7.35E-03
254,-3.97E-03,-2.23E-03,-5.09E-05,6.07E-04,6.02E-03
255,-3.91E-03,-2.34E-03,-2.13E-04,-6.00E-05,5.90E-03
256,-2.18E-03,-1.76E-03,-7.02E-05,-9.48E-05,5.84E-03
257,-3.93E-03,-3.18E-03,-1.17E-03,-1.21E-03,4.36E-03
258,-2.00E-03,-1.32E-03,5.70E-04,5.14E-04,6.34E-03
259,1.14E-03,7.84E-04,2.40E-03,2.97E-03,6.86E-03
260,9.79E-03,8.78E-03,9.98E-03,1.06E-02,1.38E-02
261,3.66E-02,3.54E-02,3.56E-02,3.59E-02,3.38E-02
262,8.37E-02,8.00E-02,7.83E-02,7.93E-02,6.70E-02
263,0.147792392,0.14123102,0.134488165,0.138376081,0.111567295
264,0.215646126,0.205402719,0.19257679,0.200333121,0.155221868
265,0.278379172,0.261831297,0.245284733,0.256182881,0.192564787
266,0.331349078,0.309663728,0.288702271,0.302498403,0.223002006
267,0.37126859,0.345943406,0.321266982,0.33773343,0.245846896
268,0.402624798,0.374829526,0.345154264,0.364143994,0.262290065
269,0.426558753,0.394797846,0.362803075,0.384267119,0.274790942
270,0.443992558,0.409288635,0.376177457,0.398379895,0.282748012
271,0.458409887,0.420683895,0.385488905,0.411070742,0.290400531
272,0.470021122,0.429372202,0.39449815,0.420051051,0.295536653
273,0.477228588,0.436394503,0.399597159,0.427025469,0.299418892
274,0.480334039,0.438400207,0.402514365,0.430366891,0.301784494
275,0.482242157,0.438663229,0.404780784,0.43117521,0.302941234
276,0.481221541,0.43784656,0.403350118,0.431366235,0.303439373
277,0.480237432,0.435520538,0.401555836,0.431062988,0.302783851
278,0.477516203,0.432324856,0.398920331,0.429123587,0.301891981
279,0.47535976,0.43037488,0.397575606,0.427619752,0.301487562
280,0.475082361,0.429976474,0.397114207,0.428850048,0.301258099
281,0.47649247,0.429847934,0.397382165,0.429363433,0.303112247
282,0.477781876,0.430330115,0.397540823,0.431470247,0.303677846
283,0.478132762,0.429553477,0.398448984,0.431247988,0.304326705
284,0.478152737,0.428946431,0.398047028,0.431978333,0.304601009
285,0.47853763,0.428515741,0.397890049,0.43253119,0.305259153
286,0.478668618,0.428588629,0.397485538,0.433118214,0.306116816
287,0.478621947,0.426914913,0.396697998,0.433572349,0.306237244
288,0.477438343,0.426419216,0.396425371,0.433302509,0.306123002
289,0.476341342,0.425239047,0.395470132,0.432593305,0.306205919
290,0.475765258,0.424026721,0.395246704,0.43346032,0.307120793
291,0.475800275,0.423529922,0.39470269,0.434683078,0.30709774
292,0.476340969,0.422912506,0.394303245,0.434900596,0.307303877
293,0.476393441,0.423073016,0.394795282,0.435210743,0.307491271
294,0.477747469,0.423639777,0.394916951,0.435846461,0.307239108
295,0.479132393,0.424284236,0.395716949,0.437925941,0.309052425
296,0.479772208,0.42417234,0.396594392,0.439069714,0.310375225
297,0.480286778,0.425004393,0.397051216,0.440321003,0.311406749
298,0.48110763,0.425410243,0.396728779,0.440716197,0.312531909
299,0.482603562,0.426926287,0.398113714,0.442158104,0.313129212
300,0.484669235,0.428192709,0.399280995,0.445773926,0.313539129
301,0.485606273,0.428957007,0.400282835,0.446510772,0.315004191
302,0.486859908,0.428671635,0.401799986,0.448806662,0.315373283
303,0.486950225,0.428974823,0.403076892,0.448973558,0.316486303
304,0.487416561,0.430012736,0.402322739,0.449309041,0.317466876
305,0.488958674,0.429162043,0.404454433,0.452834608,0.318414548
306,0.489557581,0.431721228,0.404847807,0.455153563,0.320315107
307,0.491964623,0.432910321,0.406462513,0.458680487,0.32077206
308,0.494712034,0.434338161,0.408751591,0.4600871,0.322019367
309,0.493058827,0.433720809,0.407393919,0.460552085,0.321729337
310,0.491654152,0.432358716,0.407547139,0.460327395,0.322035255
311,0.491068326,0.433380446,0.406145604,0.459519594,0.321913828
312,0.490505975,0.431263608,0.406433447,0.460576236,0.322238431
313,0.491034266,0.431166888,0.406520566,0.46280697,0.322667492
314,0.489552518,0.431690517,0.408390192,0.462592349,0.323965091
315,0.490873285,0.43169998,0.407371637,0.463169853,0.323461431
316,0.491043187,0.432228467,0.408130447,0.46423102,0.325056692
317,0.490724216,0.432167266,0.408578949,0.465786821,0.325709783
318,0.491355869,0.431447134,0.4087218,0.46624676,0.325865386
319,0.491062505,0.432345962,0.408794407,0.468405723,0.3271328
320,0.490840631,0.433118261,0.40946521,0.469521396,0.327266625
321,0.491726053,0.432969665,0.410774825,0.470520628,0.328018168
322,0.492328487,0.43272602,0.409426487,0.471485299,0.328568495
323,0.492105311,0.432532187,0.40995948,0.473006172,0.329113013
324,0.491756545,0.431830108,0.41089373,0.47318156,0.32932597
325,0.491706634,0.432177211,0.409594268,0.473853674,0.329293483
326,0.490925895,0.432391035,0.410969402,0.474408981,0.3304312
327,0.490085544,0.43130992,0.409134731,0.474028052,0.33010954
328,0.489690447,0.431131856,0.409987301,0.474785342,0.330818822
329,0.488482775,0.429837999,0.408681623,0.473990904,0.329443368
330,0.487852629,0.428508945,0.40873131,0.474371511,0.32971484
331,0.488503765,0.42798039,0.408976501,0.473856929,0.329935985
332,0.487081464,0.427318184,0.406762406,0.474501864,0.330392229
333,0.484283622,0.425047387,0.406775034,0.473847077,0.329791287
334,0.4848949,0.425097041,0.406098495,0.473607548,0.330402182
335,0.482300021,0.425512596,0.404795387,0.473867905,0.329668583
336,0.481959485,0.423065333,0.404673232,0.474031967,0.330169292
337,0.480927265,0.423189358,0.404579145,0.473220956,0.329987914
338,0.479612449,0.420890492,0.404321622,0.474952881,0.329476134
339,0.479506653,0.420642361,0.403337058,0.475793734,0.329993851
340,0.479953415,0.421076467,0.403048547,0.476142301,0.330864248
341,0.478124253,0.423426651,0.402489129,0.474524332,0.331086004
342,0.477010088,0.420373759,0.403057604,0.476238161,0.332562645
343,0.478346655,0.419331592,0.403473137,0.476478729,0.330394055
344,0.478161154,0.418703952,0.403075269,0.476827533,0.332336617
345,0.477228928,0.419232867,0.402625807,0.478000545,0.33167984
346,0.479626332,0.419542032,0.403339179,0.477744414,0.33212998
347,0.481814207,0.422323985,0.403789067,0.478777605,0.333886202
348,0.481851841,0.422332773,0.403809352,0.479302835,0.335077142
349,0.481615,0.422368547,0.403037074,0.479415397,0.334524695
350,0.482962636,0.424843585,0.406083604,0.481927384,0.335885069
351,0.487390747,0.426595609,0.407484688,0.485986889,0.335194897
352,0.486986505,0.425971802,0.410305918,0.485658451,0.335506778
353,0.487481811,0.427531249,0.409651492,0.485641194,0.337749852
354,0.492774263,0.431772746,0.411148508,0.486971137,0.336890136
355,0.492909729,0.433307087,0.412390652,0.489424053,0.339913779
356,0.493178587,0.435663952,0.413467396,0.487829423,0.338448594
357,0.496505304,0.436722842,0.419534889,0.493241152,0.340768638
358,0.49981299,0.43991444,0.421254079,0.49561319,0.341936013
359,0.502582622,0.441170997,0.423678449,0.498146201,0.341891889
360,0.506410326,0.443383578,0.425702421,0.499122374,0.343825438
361,0.507594509,0.447014719,0.426924574,0.500922622,0.344231524
362,0.511289368,0.450725919,0.429740773,0.504664465,0.346053402
363,0.514144703,0.455720326,0.434523852,0.507875116,0.346937953
364,0.518639537,0.45714674,0.436989928,0.509738582,0.348706709
365,0.521104935,0.459017718,0.437995188,0.514962366,0.349415973
366,0.525084137,0.465748668,0.44217076,0.514878395,0.350891893
367,0.52983861,0.467941319,0.447226094,0.51822499,0.353219434
368,0.533756361,0.468562161,0.448320138,0.522484312,0.353931883
369,0.53313069,0.472972481,0.450757513,0.521242182,0.35373967
370,0.537209191,0.478503958,0.45473962,0.525987493,0.356303534
371,0.541698497,0.481660415,0.458390098,0.526709474,0.357099713
372,0.546416006,0.482395888,0.460327339,0.530890197,0.359845579
373,0.547386143,0.484792085,0.464566591,0.535959543,0.361612644
374,0.552364329,0.488399646,0.465983615,0.536650234,0.362346408
375,0.553755641,0.495159696,0.472089514,0.539406632,0.363307852
376,0.558420569,0.496377629,0.474587183,0.543121707,0.364324904
377,0.561666193,0.501705251,0.475135788,0.546385253,0.367050561
378,0.567137675,0.503294874,0.480802999,0.551549705,0.368588449
379,0.57137098,0.510381012,0.486757243,0.553490229,0.371775057
380,0.576470137,0.514384835,0.489912058,0.557830096,0.373491348
381,0.57576127,0.514785415,0.490574924,0.557821165,0.372680324
382,0.579270098,0.519056615,0.495785298,0.562307459,0.37565087
383,0.583179155,0.522609318,0.498475441,0.56604688,0.377194623
384,0.582781818,0.523333622,0.498712642,0.564946629,0.377103233
385,0.581195876,0.522042585,0.499313502,0.564027425,0.376506649
386,0.579783169,0.521745645,0.498419465,0.561853334,0.375422798
387,0.579705626,0.521170675,0.499210497,0.562385174,0.374839684
388,0.583344363,0.525290631,0.502930612,0.566317093,0.377406845
389,0.584567939,0.5267976,0.504006425,0.566502342,0.377702067
390,0.58190284,0.52447946,0.502910894,0.564561548,0.37699495
391,0.586814122,0.52926937,0.507852465,0.569808639,0.379515731
392,0.59109145,0.53430317,0.511116885,0.574147603,0.382178316
393,0.597471841,0.540149063,0.517727955,0.579756165,0.385680697
394,0.589444976,0.534322121,0.511957023,0.574373544,0.381306294
395,0.587641883,0.532936092,0.512067043,0.573564547,0.381493604
396,0.592291455,0.538113689,0.517430906,0.577712041,0.383577423
397,0.593659903,0.539378783,0.517865041,0.580883965,0.386260636
398,0.599226121,0.545247056,0.523557381,0.586261468,0.388894533
399,0.599831839,0.544851537,0.524854122,0.587296029,0.389558213
400,0.588576706,0.535075264,0.51664322,0.576488557,0.38354527
401,0.593167007,0.538096996,0.519320477,0.582563309,0.387285133
402,0.596716432,0.545382749,0.524189377,0.585826451,0.390758484
403,0.598871802,0.546607998,0.526807849,0.588402653,0.391246564
404,0.605430607,0.551073192,0.532207548,0.594340343,0.394647599
405,0.610830916,0.555271385,0.535404071,0.598894661,0.397690382
406,0.610853275,0.555287158,0.537389951,0.601406012,0.398450588
407,0.604384049,0.548713498,0.532418904,0.596337938,0.394987181
408,0.608548064,0.555852716,0.536885374,0.601123535,0.399078545
409,0.619063049,0.564142367,0.546311347,0.610394174,0.405045062
410,0.618003037,0.562780107,0.54526984,0.612049447,0.404663343
411,0.612622711,0.557782219,0.540584032,0.608724736,0.403049873
412,0.617207789,0.561540402,0.544478285,0.61070906,0.404341597
413,0.620191823,0.563484541,0.546865223,0.617956709,0.408550314
414,0.622935908,0.566917393,0.549600663,0.617547543,0.407904912
415,0.616296558,0.562869237,0.545452446,0.615636772,0.407094224
416,0.620329,0.564074274,0.55023208,0.617814227,0.410191621
417,0.621116937,0.567951781,0.5532321,0.622839748,0.413298331
418,0.623260356,0.567197838,0.553625067,0.621363602,0.411036446
419,0.625625064,0.569169281,0.555686547,0.626383452,0.413398892
420,0.628961542,0.572372197,0.556432699,0.629367218,0.414793577
421,0.629705333,0.574710456,0.56171666,0.633659067,0.418530494
422,0.63340725,0.577438711,0.56483785,0.639726655,0.420276043
423,0.623760033,0.570240127,0.55754191,0.631121044,0.41534512
424,0.622843232,0.567875466,0.554627823,0.628013717,0.415780625
425,0.629698083,0.573688727,0.561993833,0.635301829,0.420995315
426,0.626187831,0.572372372,0.561947797,0.635097482,0.419789903
427,0.630394926,0.57304046,0.56452771,0.636846482,0.421017459
428,0.635458423,0.580134883,0.571840431,0.647021201,0.424524656
429,0.633380654,0.577774548,0.569092843,0.643224818,0.423875396
430,0.645862747,0.59063802,0.579978477,0.655273625,0.432029956
431,0.641794553,0.584989936,0.57472735,0.648547388,0.428314344
432,0.624530998,0.571888246,0.562523647,0.634690158,0.420770092
433,0.631935305,0.577284526,0.571042303,0.643294152,0.426037605
434,0.651827679,0.594503193,0.588349631,0.665282728,0.436257155
435,0.638297651,0.586040201,0.577691842,0.652782844,0.430596486
436,0.63426064,0.583992215,0.575382642,0.648966053,0.429572401
437,0.646521283,0.593811247,0.585832006,0.663303827,0.434598495
438,0.641472046,0.590521919,0.585475091,0.661307557,0.433730032
439,0.646378405,0.593965145,0.589951526,0.664934157,0.436897138
440,0.643127976,0.59234845,0.588576366,0.662363782,0.436475727
441,0.64641653,0.595576606,0.592176041,0.667559515,0.439099354
442,0.652580988,0.600285303,0.595848891,0.675491928,0.442550884
443,0.638388071,0.588212952,0.586055553,0.660544354,0.4355542
444,0.643811646,0.59345597,0.591458542,0.666729993,0.439724105
445,0.638863444,0.589714696,0.58983205,0.664303843,0.43787476
446,0.638548506,0.590912327,0.591136111,0.664130528,0.438535376
447,0.642087532,0.594636205,0.595872789,0.671474967,0.442271116
448,0.637051548,0.590840629,0.59321945,0.66899631,0.442113835
449,0.638198946,0.592063717,0.595653155,0.672852039,0.44281899
450,0.639238515,0.594851199,0.598792125,0.675216804,0.444771223
451,0.63472508,0.590007642,0.596580974,0.673014071,0.444152515
452,0.633993003,0.589685899,0.597391871,0.673630212,0.445108236
453,0.63218515,0.590217391,0.59896003,0.676262483,0.44635134
454,0.627939407,0.586369696,0.597720802,0.673747209,0.445709277
455,0.630614589,0.588688886,0.602227347,0.68026021,0.449833238
456,0.628377237,0.588564347,0.602396683,0.681505022,0.450589228
457,0.620789024,0.582325138,0.598127817,0.677097228,0.448951711
458,0.621151818,0.583555713,0.601872818,0.683124164,0.451620929
459,0.615125877,0.578568228,0.598153855,0.67827754,0.451080387
460,0.609896172,0.574923671,0.595756353,0.67802947,0.450008279
461,0.604697098,0.570916493,0.592149579,0.675563291,0.449466981
462,0.599774512,0.566078799,0.590084225,0.673035321,0.448461566
463,0.593808798,0.560908706,0.587113259,0.669538246,0.44727241
464,0.597709791,0.56704178,0.597663569,0.682684294,0.454481338
465,0.591015817,0.562012903,0.591315906,0.6793632,0.453150349
466,0.583418781,0.556935528,0.588630705,0.677024341,0.453418946
467,0.569825039,0.542605294,0.576188553,0.66285312,0.446136667
468,0.566033924,0.540700115,0.57597965,0.663790494,0.446885048
469,0.566764917,0.543323758,0.582242576,0.669954701,0.45036093
470,0.559977824,0.537256472,0.577224402,0.668184982,0.450162699
471,0.557319196,0.536959056,0.579639041,0.672884799,0.452390949
472,0.552658576,0.533963607,0.58064087,0.673682132,0.453266359
473,0.547315529,0.529322513,0.57873896,0.672832574,0.454309657
474,0.540625213,0.525220041,0.57252691,0.669846344,0.455134474
475,0.533235273,0.517990646,0.569551985,0.666922586,0.452636672
476,0.527900579,0.513521249,0.56693352,0.667304693,0.453219571
477,0.515821533,0.504204504,0.559461438,0.658045186,0.447595812
478,0.512593606,0.50218814,0.559852886,0.661460509,0.450883806
479,0.507837335,0.499385085,0.558176679,0.66212608,0.451947638
480,0.498536711,0.490561583,0.552036323,0.656472433,0.449583434
481,0.496003826,0.48849055,0.552513731,0.66155189,0.451587529
482,0.48775094,0.481505642,0.547625894,0.657607094,0.450519066
483,0.480366951,0.476098491,0.543915894,0.655867965,0.449734515
484,0.473146017,0.469950328,0.539896918,0.653583154,0.449057507
485,0.466219887,0.463984149,0.535839498,0.651005339,0.448337472
486,0.459195348,0.458320702,0.531849093,0.648484143,0.447553878
487,0.452044385,0.452691759,0.527848769,0.646105514,0.446992493
488,0.445783658,0.446858336,0.5239348,0.643699622,0.446428364
489,0.439098238,0.441284438,0.520513362,0.64091396,0.445577671
490,0.432260566,0.435925365,0.516894,0.638610015,0.444888353
491,0.425870359,0.430423697,0.513092841,0.636635933,0.4439509
492,0.42070176,0.425263118,0.510188297,0.635943449,0.44551573
493,0.414994908,0.420510724,0.505761373,0.633200212,0.444352813
494,0.408824017,0.414789506,0.502828718,0.632091558,0.445226877
495,0.40203866,0.40785569,0.498015906,0.629515318,0.444087492
496,0.395948157,0.40395985,0.493857517,0.630876318,0.443858387
497,0.391323993,0.399158041,0.49199999,0.629483087,0.444733953
498,0.381557233,0.389506305,0.482038924,0.618607726,0.439073968
499,0.378698576,0.387745852,0.482370258,0.62402931,0.441849047
500,0.374399762,0.382742761,0.480253459,0.624523104,0.443145207
501,0.367837816,0.376215067,0.473030315,0.618753723,0.439976736
502,0.362997432,0.372289399,0.47007096,0.617362126,0.440853686
503,0.357367143,0.366769024,0.466077924,0.615511936,0.440632509
504,0.352204084,0.362495666,0.461445094,0.612317643,0.438936149
505,0.3454437,0.356368576,0.455606809,0.608035004,0.437448432
506,0.34375444,0.353184441,0.45364937,0.610712295,0.439588608
507,0.338443176,0.348404377,0.450481838,0.607773982,0.437653045
508,0.333623023,0.343290961,0.445014404,0.603970486,0.436515157
509,0.330058044,0.341158587,0.444078757,0.603654193,0.438805628
510,0.325133023,0.335609449,0.438206061,0.599750818,0.436716076
511,0.322010952,0.333072125,0.435277456,0.600435724,0.436572114
512,0.317749161,0.327171308,0.430993442,0.596500323,0.434871731
513,0.313994864,0.324040074,0.428055023,0.594086361,0.434707644
514,0.310366802,0.320301199,0.424124444,0.592782535,0.434558447
515,0.3064568,0.316447138,0.420470338,0.590224935,0.433047282
516,0.304227229,0.312917196,0.417804443,0.588720923,0.433914582
517,0.300376862,0.309792108,0.415202401,0.588555603,0.43308424
518,0.295447671,0.305702082,0.409297051,0.584017783,0.430400877
519,0.29332615,0.302981588,0.407590531,0.583198611,0.431307876
520,0.289326244,0.299783302,0.402820087,0.580398616,0.430512222
521,0.28613615,0.296008852,0.399623574,0.575933816,0.428081209
522,0.284185295,0.293733643,0.397453817,0.575894888,0.429210169
523,0.281050195,0.29009144,0.394451477,0.575094503,0.428347847
524,0.278195376,0.287601946,0.39129184,0.573922529,0.428821252
525,0.275542055,0.284386179,0.387726681,0.570266548,0.427657353
526,0.273059495,0.281972039,0.384590432,0.568298941,0.427144079
527,0.270412457,0.278250078,0.381755779,0.56687201,0.426139704
528,0.267013878,0.27633127,0.377541953,0.563396974,0.424638588
529,0.265461947,0.274098376,0.376634658,0.56342676,0.426068189
530,0.26283345,0.270849934,0.371783097,0.559970382,0.424524636
531,0.259588369,0.268004644,0.368945884,0.556764079,0.422768149
532,0.258291502,0.266029494,0.366643063,0.556087592,0.422981933
533,0.256334738,0.263920965,0.364919118,0.555265594,0.422762395
534,0.254078918,0.262171612,0.362136091,0.554062294,0.42296107
535,0.250956554,0.258894604,0.358254519,0.548884187,0.420441228
536,0.249039489,0.256225985,0.355732318,0.546677374,0.419319455
537,0.247241682,0.254243517,0.352664946,0.543298188,0.417753612
538,0.245623266,0.252887174,0.35168713,0.543684296,0.419826976
539,0.243489136,0.251187848,0.348906418,0.542449606,0.419509433
540,0.241481983,0.248351404,0.345481843,0.538474502,0.417250454
541,0.239701982,0.246448691,0.343734197,0.536944547,0.416807844
542,0.238541777,0.244525292,0.341511521,0.535757628,0.41601216
543,0.23688462,0.242975632,0.338649078,0.533553534,0.415328894
544,0.235759655,0.241788479,0.337429362,0.532270933,0.415616743
545,0.233792895,0.23932914,0.334456886,0.530673368,0.414616414
546,0.232271026,0.23761932,0.332273103,0.526783734,0.413641137
547,0.230865963,0.236241622,0.330651767,0.526537557,0.413077997
548,0.22998118,0.235176642,0.330206751,0.527601262,0.414704555
549,0.227685437,0.233025221,0.3260992,0.5219049,0.41117303
550,0.226332307,0.231364756,0.323958313,0.518957036,0.40998466
551,0.225450963,0.230158125,0.322358431,0.518746276,0.411068388
552,0.224928424,0.229800862,0.321759311,0.519601343,0.412295213
553,0.223005486,0.227431625,0.319350456,0.516409709,0.409972533
554,0.221890462,0.225783363,0.316972445,0.51382989,0.408556985
555,0.220780466,0.224696604,0.315098334,0.512074018,0.407954239
556,0.22047454,0.223933664,0.314357007,0.512797917,0.409263994
557,0.218920746,0.221888707,0.311505371,0.50842328,0.406457064
558,0.217900046,0.221369097,0.31073857,0.507004035,0.406196588
559,0.217024602,0.219949744,0.309256101,0.50572398,0.406091002
560,0.216477589,0.219503308,0.308371863,0.506130251,0.406871178
561,0.215750685,0.218621037,0.306803691,0.505889527,0.407724636
562,0.214128696,0.216423601,0.303625436,0.500002947,0.403911758
563,0.213723603,0.215917996,0.302619337,0.499673589,0.403584286
564,0.213462628,0.21530238,0.302240369,0.499456765,0.40458132
565,0.21227268,0.214434518,0.300069968,0.497711577,0.40352533
566,0.211704202,0.212733402,0.298575262,0.495504463,0.402640019
567,0.211196132,0.21316483,0.297461746,0.496228066,0.403886843
568,0.211347762,0.212135247,0.296323076,0.496414573,0.404915434
569,0.210878333,0.211614488,0.294479439,0.495902767,0.40516849
570,0.210798749,0.211191146,0.293514827,0.497507985,0.406994484
571,0.209514195,0.209765495,0.290719079,0.493781755,0.404926593
572,0.208386336,0.208016351,0.288344223,0.489311594,0.402382263
573,0.207178243,0.206922608,0.286577872,0.485098038,0.399916806
574,0.209214422,0.208759603,0.287958053,0.492348379,0.405888801
575,0.20761331,0.206382973,0.284662538,0.486251062,0.402017224
576,0.205283331,0.203907499,0.2809913,0.477102347,0.39529122
577,0.208865191,0.207425259,0.284922191,0.489287605,0.404863233
578,0.208699199,0.206849446,0.283619591,0.488152606,0.404734146
579,0.204162746,0.201792082,0.276674952,0.470285324,0.390982295
580,0.206262458,0.203928535,0.27902396,0.474941978,0.395025563
581,0.210251431,0.20776683,0.283533803,0.488153094,0.405718999
582,0.209195061,0.206351011,0.280676547,0.485213454,0.403630679
583,0.202280814,0.199104752,0.271002467,0.45984016,0.383602729
584,0.204699671,0.201894408,0.274782397,0.463324675,0.386227076
585,0.211270262,0.20817756,0.282632789,0.482892535,0.401818311
586,0.208582676,0.204760122,0.277693807,0.471883836,0.393224637
587,0.208155381,0.204570798,0.27666321,0.467485097,0.389719506
588,0.210522326,0.206229405,0.279195427,0.471794844,0.392926025
589,0.208452112,0.204123874,0.276092121,0.461746696,0.384465715
590,0.210881063,0.206447149,0.278933891,0.465482764,0.38694713
591,0.212634146,0.208267928,0.281118012,0.467378667,0.387866389
592,0.214447431,0.209796633,0.282584316,0.470470487,0.389883167
593,0.21795084,0.212978073,0.285779913,0.479397816,0.39691337
594,0.21522458,0.209833399,0.280955545,0.467303371,0.387086524
595,0.21630642,0.210871986,0.282574295,0.466511926,0.385551929
596,0.21763911,0.212041906,0.283988429,0.467702604,0.385667606
597,0.218903325,0.21363622,0.285879186,0.468384953,0.385493289
598,0.221893306,0.216093243,0.289316347,0.474088165,0.389329751
599,0.224243242,0.218707314,0.291671918,0.479581722,0.393101274
600,0.223135858,0.217398806,0.289872199,0.474957533,0.38861385
601,0.223385892,0.217821093,0.290558763,0.473313064,0.387013528
602,0.224344336,0.218859099,0.292137716,0.473731718,0.386447143
603,0.226789395,0.221357867,0.295533711,0.48020847,0.390588476
604,0.227904665,0.222595778,0.297354407,0.483351747,0.392838559
605,0.22929985,0.224105903,0.299645041,0.487465507,0.395277183
606,0.232782614,0.227376997,0.304759208,0.498607671,0.40323125
607,0.231238441,0.226090706,0.303933773,0.496224698,0.400820862
608,0.229908975,0.225150404,0.303173418,0.493782195,0.398654262
609,0.227179115,0.223173964,0.300824273,0.487911451,0.394612666
610,0.225425816,0.22163881,0.299463153,0.485762095,0.39305239
611,0.222927551,0.219438761,0.297415535,0.483320279,0.391757117
612,0.220751524,0.21761255,0.296143393,0.481065372,0.390517431
613,0.220253305,0.217164332,0.296985769,0.484819511,0.39366714
614,0.218215208,0.21599619,0.296009117,0.486442275,0.394946349
615,0.216235701,0.214210038,0.294446943,0.486556495,0.395783824
616,0.213415972,0.211778402,0.292386162,0.484120152,0.394773755
617,0.210812438,0.209592101,0.290335229,0.482653304,0.394614826
618,0.208596543,0.207561807,0.289137363,0.484244355,0.396408767
619,0.205151997,0.204454623,0.286071271,0.480125467,0.394640197
620,0.203639376,0.20324246,0.28575782,0.482807696,0.397447958
621,0.200628449,0.199868511,0.282574308,0.479734076,0.396195926
622,0.198196145,0.197794991,0.280697173,0.479698832,0.39669109
623,0.195782837,0.195743629,0.278558579,0.480055602,0.398528753
624,0.192288225,0.192579734,0.275107009,0.476425982,0.397835196
625,0.189455956,0.189877631,0.272785574,0.475060803,0.397117429
626,0.187018574,0.18745382,0.270490596,0.473111221,0.396994625
627,0.185227048,0.185580528,0.268684365,0.473495868,0.399161505
628,0.182780704,0.183561079,0.26662638,0.471665209,0.399039691
629,0.180117128,0.181258295,0.264405289,0.471298299,0.399232279
630,0.177673186,0.17906861,0.261811826,0.46967674,0.399296453
631,0.174787944,0.176325297,0.258573846,0.465794773,0.397342975
632,0.172543053,0.174369911,0.256522392,0.463528023,0.397282148
633,0.170195452,0.172045505,0.253828199,0.460741847,0.396306337
634,0.168231516,0.170111722,0.251409475,0.459275679,0.396160769
635,0.166247715,0.168115936,0.249507108,0.457254155,0.395988514
636,0.16454495,0.166480541,0.247124775,0.455816197,0.396374778
637,0.162927718,0.16487689,0.245141607,0.453363481,0.395236367
638,0.160910661,0.163486036,0.242742785,0.450083825,0.39386527
639,0.160061625,0.161884706,0.24180065,0.449081843,0.394116777
640,0.158386992,0.160148356,0.238967605,0.446333827,0.392181708
641,0.157411911,0.158814142,0.237901768,0.444195391,0.392295553
642,0.156260824,0.157934338,0.236451442,0.44296527,0.391002457
643,0.155184042,0.15710196,0.234935696,0.44094392,0.390373388
644,0.154306278,0.156532271,0.233728209,0.439336756,0.390136
645,0.154027761,0.15554889,0.232641987,0.43766354,0.389368908
646,0.153895206,0.155308221,0.231907104,0.436539992,0.388481581
647,0.153218533,0.15470307,0.231372404,0.434862068,0.3884242
648,0.153052529,0.15460757,0.230634105,0.434718898,0.388723759
649,0.152770294,0.154365744,0.229948676,0.433705793,0.38767114
650,0.153475915,0.154643287,0.229624512,0.431648614,0.386311344
651,0.153898812,0.154484371,0.229988432,0.431777569,0.38544834
652,0.15484057,0.155616981,0.231225925,0.432846617,0.385398095
653,0.155702237,0.156542809,0.232266601,0.433622209,0.385418957
654,0.156395978,0.157336808,0.233339759,0.434559015,0.385298695
655,0.157522117,0.158368261,0.234384714,0.435553274,0.38572927
656,0.158212289,0.159383489,0.235518645,0.436472296,0.38569004
657,0.159216419,0.1603183,0.236545578,0.437268393,0.385812281
658,0.159964153,0.161289505,0.237775064,0.437822211,0.385786467
659,0.161191082,0.162301295,0.238981518,0.439018101,0.385520768
660,0.161931535,0.163270406,0.240142836,0.439668118,0.385685518
661,0.1627631,0.164046206,0.241127932,0.440655978,0.385567353
662,0.163804528,0.165263952,0.242956937,0.442429155,0.385983616
663,0.163764638,0.166060618,0.244591754,0.444108751,0.386422111
664,0.162943656,0.166103848,0.245827432,0.446619649,0.387304217
665,0.162666312,0.166521921,0.247242995,0.449228627,0.388257572
666,0.161437104,0.165954927,0.24768515,0.45049748,0.388876062
667,0.159715868,0.165410055,0.248863115,0.452647994,0.389642743
668,0.157486003,0.164546341,0.249422632,0.45588775,0.391711339
669,0.154851797,0.163329192,0.249893451,0.457967862,0.393157105
670,0.15182486,0.160890336,0.249060136,0.460449508,0.394307319
671,0.148186661,0.158606134,0.248309537,0.463036604,0.396721097
672,0.144319286,0.155804618,0.247414003,0.465062608,0.399195039
673,0.139483897,0.151810305,0.24393228,0.463740024,0.398835039
674,0.134588715,0.147502513,0.241197571,0.464359061,0.400010622
675,0.129512125,0.143223394,0.23849422,0.464518398,0.402854352
676,0.124179647,0.138569357,0.234123223,0.464167791,0.403751583
677,0.118921831,0.133135436,0.228942852,0.463550343,0.405046332
678,0.113851862,0.128133248,0.223987398,0.462430627,0.406723246
679,0.108466942,0.123142211,0.218500786,0.458817157,0.407623503
680,0.10314906,0.117635599,0.212280759,0.455186272,0.407720089
681,9.83E-02,0.112443181,0.20662225,0.451749551,0.407955832
682,9.38E-02,0.107679318,0.201046294,0.448412934,0.408751152
683,8.89E-02,0.102929368,0.195089204,0.444116513,0.408683069
684,0.085116705,9.85E-02,0.18929385,0.440651508,0.409981419
685,8.13E-02,9.43E-02,0.183842064,0.436900266,0.410341992
686,7.73E-02,9.02E-02,0.178250442,0.43087669,0.408844419
687,7.37E-02,8.63E-02,0.172762522,0.425625957,0.408607413
688,7.10E-02,8.30E-02,0.168480741,0.421459567,0.408406232
689,0.068028619,7.98E-02,0.16417764,0.41696892,0.407826241
690,6.51E-02,7.69E-02,0.159560709,0.412293068,0.407932353
691,6.31E-02,7.41E-02,0.155370994,0.407712058,0.407887095
692,6.02E-02,7.16E-02,0.151659977,0.4027725,0.406610605
693,5.81E-02,6.92E-02,0.14789675,0.397517661,0.405640847
694,5.66E-02,6.73E-02,0.144750469,0.39410295,0.405627847
695,5.47E-02,6.51E-02,0.141857837,0.389411854,0.404482279
696,5.27E-02,0.063347694,0.138754674,0.385556346,0.404748375
697,5.14E-02,0.061662042,0.135709646,0.382637568,0.404963603
698,4.97E-02,6.00E-02,0.133113238,0.377684154,0.403472762
699,4.83E-02,5.84E-02,0.130788217,0.373624797,0.402570576
700,4.76E-02,5.71E-02,0.128502179,0.370363699,0.402434565
701,4.59E-02,5.53E-02,0.12644708,0.366874565,0.402063058
702,4.46E-02,0.05424803,0.124404659,0.363194594,0.40119737
703,4.39E-02,5.30E-02,0.122157787,0.35992955,0.400794728
704,4.26E-02,5.19E-02,0.120473787,0.356682687,0.399567555
705,4.20E-02,5.11E-02,0.118840778,0.353534195,0.399386047
706,4.16E-02,5.01E-02,0.116992951,0.350728199,0.399247432
707,4.04E-02,0.049101751,0.11536529,0.348786815,0.399867025
708,3.94E-02,4.84E-02,0.113378293,0.34433934,0.397805044
709,3.90E-02,4.69E-02,0.111843851,0.340862485,0.396397929
710,3.81E-02,4.65E-02,0.110866637,0.338592527,0.396656502
711,3.76E-02,4.55E-02,0.109180015,0.335616507,0.396044211
712,3.72E-02,4.49E-02,0.107728274,0.332187661,0.394512329
713,3.64E-02,4.43E-02,0.107126979,0.330683116,0.394817522
714,3.59E-02,0.043819378,0.105398042,0.328064904,0.394417802
715,3.50E-02,4.28E-02,0.103990568,0.324800191,0.393592659
716,3.46E-02,4.24E-02,0.103539528,0.322735853,0.392640375
717,3.46E-02,4.16E-02,0.101898281,0.319946055,0.392242721
718,3.38E-02,4.12E-02,0.101386958,0.31858054,0.392523832
719,3.35E-02,4.10E-02,0.100749473,0.316322785,0.392092078
720,3.32E-02,4.03E-02,9.92E-02,0.313741834,0.391518755
721,3.27E-02,3.98E-02,9.87E-02,0.31149793,0.391212255
722,3.27E-02,3.95E-02,9.76E-02,0.309629475,0.391019295
723,3.21E-02,0.038940049,9.66E-02,0.3071115,0.389941277
724,3.17E-02,3.86E-02,9.60E-02,0.305723065,0.389634596
725,3.18E-02,0.038251403,9.47E-02,0.30324979,0.389279604
726,0.030949876,3.77E-02,9.45E-02,0.30137078,0.389173928
727,3.05E-02,3.73E-02,9.31E-02,0.299040981,0.387852593
728,3.08E-02,3.71E-02,9.27E-02,0.296840099,0.387971328
729,0.030106137,0.03669248,0.092095255,0.29567303,0.387363855
730,3.00E-02,3.63E-02,9.09E-02,0.293471991,0.386623556
731,2.98E-02,3.61E-02,9.04E-02,0.291892735,0.386640412
732,2.94E-02,3.53E-02,8.96E-02,0.289673026,0.385368084
733,2.98E-02,3.56E-02,0.089154586,0.287530466,0.385731336
734,0.028951522,3.48E-02,8.86E-02,0.286349007,0.384984131
735,2.90E-02,3.45E-02,8.74E-02,0.284248403,0.384158079
736,2.85E-02,3.42E-02,8.71E-02,0.281732879,0.38382708
737,2.83E-02,3.38E-02,8.64E-02,0.28054163,0.382854587
738,2.85E-02,3.38E-02,8.60E-02,0.278354554,0.38198952
739,2.79E-02,3.36E-02,8.56E-02,0.277456468,0.382295395
740,2.83E-02,3.34E-02,8.50E-02,0.275340537,0.381835263
741,2.76E-02,3.30E-02,8.45E-02,0.273026954,0.380821665
742,2.75E-02,0.032572335,8.39E-02,0.272018079,0.3804805
743,2.77E-02,3.26E-02,8.35E-02,0.270418754,0.38024373
744,2.72E-02,0.032221839,8.32E-02,0.268705917,0.379310486
745,2.74E-02,3.21E-02,8.26E-02,0.267244506,0.37955015
746,2.68E-02,3.18E-02,8.22E-02,0.265574501,0.379056134
747,2.74E-02,3.17E-02,8.18E-02,0.264657178,0.378650928
748,0.026895278,3.17E-02,8.15E-02,0.262623259,0.378142425
749,2.66E-02,3.11E-02,8.08E-02,0.262016025,0.377340731
750,2.68E-02,3.10E-02,8.03E-02,0.260577154,0.378185386
751,2.63E-02,3.08E-02,7.98E-02,0.258800318,0.377046434
752,2.63E-02,3.05E-02,7.91E-02,0.257349165,0.376790296
753,2.57E-02,3.04E-02,7.89E-02,0.255635474,0.37589126
754,2.65E-02,3.01E-02,7.88E-02,0.254909633,0.376338974
755,2.56E-02,3.00E-02,0.077964715,0.252672118,0.375456134
756,2.58E-02,2.98E-02,7.80E-02,0.252685982,0.375796932
757,2.58E-02,2.96E-02,7.70E-02,0.251002382,0.376148989
758,2.55E-02,2.98E-02,7.68E-02,0.24996041,0.374957485
759,0.025574737,2.92E-02,0.07630552,0.247987815,0.374779886
760,0.025454634,2.93E-02,7.63E-02,0.247389718,0.374787501
761,2.54E-02,2.87E-02,7.52E-02,0.246161189,0.374112217
762,2.51E-02,2.90E-02,7.58E-02,0.244027798,0.372997709
763,2.54E-02,0.028671101,0.075411025,0.243621181,0.373316661
764,2.48E-02,0.028623541,7.49E-02,0.241845019,0.373120062
765,0.024912787,2.84E-02,0.074435717,0.241377465,0.372683985
766,2.49E-02,2.80E-02,7.39E-02,0.239065282,0.371414093
767,0.025043392,0.028178029,7.44E-02,0.238160562,0.370849678
768,2.49E-02,2.78E-02,0.073947456,0.237016898,0.371314898
769,2.49E-02,0.028150532,7.41E-02,0.236538505,0.371207146
770,2.48E-02,2.75E-02,7.30E-02,0.234525305,0.370545401
771,2.47E-02,2.78E-02,7.29E-02,0.233611562,0.370072586
772,2.44E-02,2.71E-02,7.23E-02,0.232586132,0.369942422
773,2.42E-02,2.72E-02,7.26E-02,0.230890957,0.368591376
774,2.44E-02,2.70E-02,7.22E-02,0.230320142,0.369094922
775,2.42E-02,2.71E-02,7.25E-02,0.228721332,0.368043492
776,2.44E-02,2.70E-02,0.071872951,0.228168443,0.36854097
777,2.43E-02,2.68E-02,7.18E-02,0.226188083,0.367684715
778,2.42E-02,2.68E-02,7.14E-02,0.22597395,0.368061419
779,2.41E-02,2.67E-02,7.08E-02,0.224568913,0.367985892
780,2.40E-02,2.65E-02,7.08E-02,0.223991457,0.367517194
781,2.40E-02,2.63E-02,7.06E-02,0.222816346,0.367459263
782,0.023958363,2.61E-02,7.03E-02,0.22195467,0.367579093
783,2.40E-02,2.59E-02,6.98E-02,0.220430152,0.365984351
784,2.36E-02,2.61E-02,7.00E-02,0.219835171,0.3663706
785,2.37E-02,2.58E-02,6.95E-02,0.218510039,0.365406967
786,2.36E-02,2.58E-02,6.98E-02,0.217710107,0.365604151
787,0.023504816,2.57E-02,0.069070796,0.216929456,0.365258082
788,0.023602968,0.025760111,6.89E-02,0.215928423,0.364981221
789,2.33E-02,2.52E-02,6.82E-02,0.214557734,0.364176681
790,2.31E-02,2.55E-02,6.87E-02,0.213284441,0.364092163
791,2.32E-02,0.025115087,6.81E-02,0.212436451,0.363320408
792,2.31E-02,2.52E-02,6.85E-02,0.211569509,0.363183319
793,2.33E-02,2.51E-02,6.81E-02,0.210886798,0.363056134
794,2.32E-02,2.48E-02,6.77E-02,0.209987899,0.362835488
795,2.30E-02,2.48E-02,6.69E-02,0.209081095,0.362174155
796,2.32E-02,0.024898738,6.75E-02,0.207855233,0.36232982
797,2.30E-02,2.45E-02,6.72E-02,0.2067223,0.361165229
798,2.27E-02,0.024497096,6.70E-02,0.205910966,0.361488876
799,2.29E-02,2.44E-02,6.64E-02,0.205123438,0.360280053
800,2.29E-02,2.45E-02,6.68E-02,0.203861148,0.360728426
801,2.28E-02,2.45E-02,6.65E-02,0.203336313,0.360698932
802,2.28E-02,2.44E-02,6.68E-02,0.20261358,0.360090561
803,2.25E-02,2.40E-02,6.58E-02,0.201116404,0.358785925
804,2.28E-02,2.44E-02,6.66E-02,0.200838,0.360207756
805,2.24E-02,2.37E-02,6.53E-02,0.199275026,0.35890604
806,2.28E-02,2.42E-02,6.60E-02,0.199594733,0.359547676
807,2.24E-02,0.023615795,6.48E-02,0.198262774,0.358565303
808,2.27E-02,2.39E-02,6.52E-02,0.197859141,0.358227682
809,2.23E-02,2.36E-02,6.47E-02,0.196817555,0.358214346
810,2.23E-02,2.37E-02,6.51E-02,0.195818455,0.358055204
811,2.22E-02,2.29E-02,6.44E-02,0.194288174,0.356711454
812,2.22E-02,2.39E-02,6.52E-02,0.193971488,0.357106797
813,2.22E-02,2.29E-02,6.40E-02,0.192896512,0.356803762
814,2.21E-02,0.023459708,6.40E-02,0.192761596,0.356508513
815,2.20E-02,0.023193777,6.39E-02,0.191607709,0.35636162
816,2.17E-02,2.31E-02,6.39E-02,0.190310058,0.355742965
817,2.23E-02,2.32E-02,6.41E-02,0.189762869,0.356071479
818,2.15E-02,2.29E-02,6.31E-02,0.188546663,0.354830531
819,0.022303034,2.27E-02,6.39E-02,0.188493162,0.355519364
820,2.18E-02,2.31E-02,6.32E-02,0.187484617,0.354278299
821,2.17E-02,2.27E-02,6.32E-02,0.187249708,0.355126957
822,2.13E-02,2.23E-02,6.27E-02,0.18577622,0.354526929
823,2.19E-02,2.29E-02,6.32E-02,0.185404904,0.35364817
824,2.16E-02,0.022273366,6.27E-02,0.183889054,0.353583456
825,2.19E-02,2.31E-02,6.31E-02,0.183912797,0.353264294
826,2.16E-02,2.21E-02,6.19E-02,0.182648447,0.35332394
827,2.13E-02,2.23E-02,6.27E-02,0.181959696,0.352772006
828,2.11E-02,2.21E-02,6.23E-02,0.181373018,0.352877449
829,2.12E-02,2.23E-02,6.14E-02,0.180519509,0.351855014
830,2.15E-02,2.23E-02,6.22E-02,0.180007835,0.352045263
831,2.11E-02,2.24E-02,6.15E-02,0.178731336,0.351252983
832,2.12E-02,0.022195396,6.23E-02,0.178674367,0.351389828
833,2.10E-02,2.18E-02,6.08E-02,0.176952659,0.350558851
834,2.12E-02,2.20E-02,6.13E-02,0.177007324,0.350894967
835,2.11E-02,2.19E-02,6.12E-02,0.176155797,0.350763885
836,0.020646518,2.20E-02,6.08E-02,0.17552158,0.349338564
837,2.14E-02,2.14E-02,6.14E-02,0.174882819,0.349891822
838,2.01E-02,2.15E-02,6.03E-02,0.173638749,0.348279177
839,2.12E-02,2.12E-02,6.09E-02,0.173114065,0.349433871
840,2.05E-02,2.13E-02,6.02E-02,0.172084363,0.34776169
841,2.08E-02,2.14E-02,6.04E-02,0.17172083,0.348516967
842,2.07E-02,2.09E-02,5.99E-02,0.170820252,0.348151895
843,1.99E-02,2.12E-02,0.060053329,0.169604891,0.347052934
844,2.10E-02,2.10E-02,6.01E-02,0.170318227,0.348161339
845,2.03E-02,2.16E-02,6.01E-02,0.168618532,0.347394252
846,2.07E-02,0.021263088,5.98E-02,0.168477874,0.346654608
847,1.98E-02,2.11E-02,5.94E-02,0.167509385,0.346476272
848,1.98E-02,2.11E-02,5.93E-02,0.167019383,0.346495343
849,2.06E-02,2.06E-02,5.94E-02,0.166616131,0.346083312
850,2.00E-02,2.14E-02,5.90E-02,0.165067656,0.345949173
851,2.04E-02,2.05E-02,5.90E-02,0.164960078,0.345062738
852,0.019406487,2.08E-02,5.90E-02,0.163723383,0.345021321
853,1.99E-02,2.06E-02,5.87E-02,0.16393096,0.344992716
854,2.00E-02,2.05E-02,0.058154009,0.163367875,0.345557542
855,1.92E-02,2.05E-02,0.057743872,0.162325572,0.344725547
856,1.97E-02,0.019871071,5.81E-02,0.161949194,0.343805809
857,1.96E-02,2.10E-02,5.83E-02,0.161044034,0.343908376
858,1.98E-02,0.020058274,5.75E-02,0.160241885,0.343493251
859,1.99E-02,0.020544417,5.81E-02,0.159797887,0.343831138
860,1.96E-02,2.03E-02,5.79E-02,0.159082112,0.342775635
861,1.94E-02,0.019955385,5.74E-02,0.158763626,0.343073762
862,1.88E-02,2.06E-02,5.76E-02,0.157441228,0.342603337
863,0.019098215,0.01940118,5.70E-02,0.157071402,0.341325353
864,1.96E-02,2.08E-02,5.78E-02,0.156807695,0.343045312
865,1.87E-02,1.97E-02,5.71E-02,0.155627234,0.341497191
866,1.92E-02,2.03E-02,5.75E-02,0.15573906,0.341022203
867,1.91E-02,0.01989518,0.056424569,0.155359375,0.341014794
868,1.91E-02,2.00E-02,5.75E-02,0.153786039,0.340580308
869,1.87E-02,1.98E-02,5.58E-02,0.153883189,0.34001877
870,1.88E-02,2.01E-02,5.69E-02,0.152601363,0.33954983
871,1.88E-02,1.99E-02,5.60E-02,0.15214529,0.340051726
872,1.87E-02,0.019499892,5.61E-02,0.1517826,0.339889887
873,1.86E-02,1.99E-02,5.64E-02,0.150075193,0.338514793
874,1.88E-02,1.86E-02,5.54E-02,0.150203463,0.338502756
875,1.84E-02,2.03E-02,5.69E-02,0.149765198,0.338636101
876,1.84E-02,1.92E-02,5.54E-02,0.149339696,0.337721019
877,1.84E-02,1.93E-02,5.52E-02,0.148425878,0.338319072
878,1.80E-02,1.92E-02,5.51E-02,0.147732473,0.336869285
879,1.83E-02,1.93E-02,5.52E-02,0.147522254,0.337712141
880,1.77E-02,1.92E-02,5.46E-02,0.146141626,0.335419374
881,0.018051593,1.92E-02,5.52E-02,0.146925914,0.336297736
882,1.81E-02,1.91E-02,5.44E-02,0.145214891,0.336626611
883,1.80E-02,1.90E-02,5.42E-02,0.144457184,0.333856796
884,1.77E-02,0.019660143,5.52E-02,0.144230405,0.334332507
885,0.01774886,1.85E-02,5.43E-02,0.143192371,0.332612071
886,0.017469743,1.94E-02,5.54E-02,0.142685413,0.333563417
887,1.77E-02,1.88E-02,0.054221003,0.143079165,0.334120961
888,1.76E-02,1.89E-02,0.054849803,0.141543219,0.332259986
889,1.74E-02,1.85E-02,5.35E-02,0.141234896,0.330664179
890,0.017292508,1.87E-02,5.34E-02,0.140001599,0.330726431
891,1.66E-02,1.88E-02,0.05321591,0.139025636,0.330506686
892,1.81E-02,1.96E-02,5.48E-02,0.140085524,0.331917667
893,1.72E-02,1.80E-02,5.32E-02,0.138237274,0.329569083
894,1.70E-02,0.018422378,0.052958637,0.138431629,0.331062046
895,1.64E-02,1.84E-02,5.25E-02,0.136633477,0.328563583
896,1.77E-02,1.90E-02,5.34E-02,0.137340726,0.330219174
897,1.61E-02,1.84E-02,5.33E-02,0.135188189,0.328166826
898,1.78E-02,1.88E-02,5.31E-02,0.137354638,0.329561569
899,1.61E-02,1.75E-02,5.27E-02,0.134005732,0.327779618
900,1.70E-02,1.90E-02,0.052634397,0.135868351,0.328635485
901,1.65E-02,1.82E-02,5.21E-02,0.134381104,0.328275913
902,1.74E-02,1.88E-02,5.22E-02,0.135332262,0.328165112
903,0.016119226,1.83E-02,5.32E-02,0.132804414,0.326539583
904,1.76E-02,1.87E-02,5.23E-02,0.133473319,0.324834159
905,1.61E-02,1.82E-02,0.05208324,0.13187935,0.32687294
906,1.73E-02,1.87E-02,5.18E-02,0.132745881,0.325770705
907,1.60E-02,1.75E-02,5.14E-02,0.130752917,0.325129166
908,1.68E-02,1.86E-02,5.19E-02,0.130452543,0.325521928
909,0.014856377,1.76E-02,5.10E-02,0.129327243,0.32320315
910,1.66E-02,1.80E-02,5.08E-02,0.129700759,0.324168998
911,1.51E-02,0.017389841,5.13E-02,0.128516883,0.323325017
912,1.55E-02,1.74E-02,5.14E-02,0.128838388,0.324042752
913,1.61E-02,0.019007545,5.18E-02,0.129079537,0.324645544
914,1.63E-02,1.82E-02,5.13E-02,0.128292011,0.323790123
915,1.48E-02,1.79E-02,5.14E-02,0.12719745,0.323306422
916,1.69E-02,1.81E-02,5.18E-02,0.127227048,0.324011368
917,1.54E-02,1.80E-02,5.11E-02,0.126131995,0.321641333
918,1.66E-02,1.86E-02,5.15E-02,0.127047705,0.324337942
919,1.41E-02,1.73E-02,4.95E-02,0.125760788,0.323057587
920,1.73E-02,1.83E-02,5.16E-02,0.126202327,0.323579327
921,1.50E-02,1.77E-02,0.050489742,0.12472237,0.322597301
922,1.65E-02,1.87E-02,5.10E-02,0.125036665,0.322941394
923,1.53E-02,1.76E-02,4.95E-02,0.12437379,0.321161321
924,1.59E-02,1.80E-02,5.13E-02,0.123936124,0.323432393
925,1.42E-02,1.73E-02,4.90E-02,0.123108974,0.321416032
926,1.62E-02,1.84E-02,5.04E-02,0.123291771,0.322789217
927,1.47E-02,0.017338131,4.89E-02,0.121659985,0.321004987
928,1.63E-02,1.88E-02,5.02E-02,0.121671728,0.321300257
929,1.49E-02,1.79E-02,5.00E-02,0.123045407,0.321855946
930,1.68E-02,1.81E-02,5.21E-02,0.122732244,0.321250288
931,1.45E-02,1.76E-02,4.93E-02,0.121449085,0.319673252
932,1.66E-02,1.71E-02,0.0515641,0.120996809,0.320675828
933,1.46E-02,1.78E-02,4.91E-02,0.120025406,0.319604809
934,1.73E-02,1.88E-02,5.16E-02,0.120733362,0.320646357
935,1.41E-02,1.70E-02,4.80E-02,0.119896271,0.318682778
936,0.01666782,1.90E-02,5.17E-02,0.119509091,0.320450334
937,1.31E-02,1.62E-02,4.80E-02,0.117327296,0.316939335
938,1.70E-02,1.92E-02,5.03E-02,0.118776447,0.320098725
939,1.55E-02,1.82E-02,4.88E-02,0.118328329,0.31740483
940,0.016650972,1.77E-02,5.06E-02,0.118213291,0.318952472
941,0.013727916,1.83E-02,4.92E-02,0.117404936,0.315616682
942,0.015826005,0.018132737,4.86E-02,0.11595064,0.316677644
943,1.50E-02,1.86E-02,4.98E-02,0.117013406,0.316211487
944,1.56E-02,1.78E-02,4.94E-02,0.115837978,0.314812634
945,1.40E-02,1.76E-02,4.92E-02,0.114758627,0.318515074
946,1.58E-02,1.76E-02,4.94E-02,0.114959345,0.315399212
947,1.49E-02,0.018286611,4.93E-02,0.115196066,0.317644616
948,1.54E-02,1.83E-02,4.98E-02,0.115000811,0.314115693
949,1.52E-02,1.87E-02,4.93E-02,0.115187665,0.316383973
950,1.61E-02,1.77E-02,4.75E-02,0.115045439,0.31459039
951,1.50E-02,0.017712129,5.03E-02,0.112949703,0.315121071
952,1.51E-02,1.80E-02,4.80E-02,0.112945444,0.310455905
953,1.56E-02,1.91E-02,5.09E-02,0.112901626,0.314342896
954,1.36E-02,1.83E-02,4.82E-02,0.111582594,0.31296323
955,1.59E-02,1.88E-02,4.91E-02,0.112341494,0.312256587
956,1.37E-02,1.73E-02,0.048453606,0.112098372,0.312263525
957,1.68E-02,1.76E-02,4.92E-02,0.111253554,0.313686654
958,1.39E-02,1.80E-02,4.76E-02,0.109697035,0.310240855
959,1.52E-02,1.76E-02,4.93E-02,0.109122578,0.310455388
960,1.50E-02,1.98E-02,4.91E-02,0.10984864,0.309723687
961,1.46E-02,1.72E-02,4.80E-02,0.109146228,0.309711394
962,1.48E-02,1.96E-02,4.95E-02,0.109205466,0.310513802
963,1.45E-02,1.84E-02,4.77E-02,0.108227273,0.306839209
964,1.54E-02,1.74E-02,4.80E-02,0.107652233,0.306792768
965,1.48E-02,1.74E-02,4.77E-02,0.106868455,0.308316545
966,1.48E-02,1.89E-02,4.86E-02,0.107240431,0.306150688
967,1.47E-02,1.72E-02,4.77E-02,0.106166935,0.305237402
968,1.39E-02,1.71E-02,4.69E-02,0.104387987,0.304965591
969,1.46E-02,1.82E-02,4.66E-02,0.107415095,0.307042988
970,1.49E-02,1.54E-02,4.56E-02,0.103447673,0.303905191
971,0.014673099,1.87E-02,4.60E-02,0.105391292,0.301597863
972,1.26E-02,1.54E-02,4.71E-02,0.101911793,0.301403396
973,1.40E-02,0.020331041,4.81E-02,0.104527766,0.306853661
974,0.014659397,1.72E-02,4.63E-02,0.105114488,0.302869817
975,1.48E-02,1.86E-02,4.84E-02,0.104981384,0.304838989
976,1.65E-02,1.84E-02,4.69E-02,0.103449327,0.300460229
977,1.25E-02,1.68E-02,4.80E-02,0.101675332,0.304554381
978,1.36E-02,1.69E-02,4.58E-02,0.101612599,0.29886602
979,1.42E-02,1.72E-02,4.70E-02,0.102221794,0.30144131
980,1.43E-02,1.92E-02,4.71E-02,0.103203871,0.298041201
981,1.31E-02,1.53E-02,4.42E-02,0.100888795,0.298369247
982,1.42E-02,1.94E-02,0.047144124,9.86E-02,0.299284741
983,1.33E-02,1.60E-02,4.43E-02,9.84E-02,0.297156956
984,1.46E-02,1.98E-02,4.59E-02,0.102184497,0.299677295
985,1.46E-02,1.91E-02,4.69E-02,0.103524683,0.299156286
986,1.34E-02,1.78E-02,4.62E-02,9.90E-02,0.298282552
987,1.65E-02,0.017622934,4.64E-02,0.100313105,0.298563551
988,1.34E-02,1.61E-02,0.044214841,0.096167186,0.295352575
989,1.66E-02,1.92E-02,4.74E-02,0.103267433,0.297965569
990,1.32E-02,1.50E-02,4.47E-02,9.58E-02,0.298097912
991,1.39E-02,2.10E-02,4.78E-02,0.100401676,0.297279715
992,0.014822271,1.80E-02,4.52E-02,9.58E-02,0.293116729
993,1.46E-02,1.76E-02,4.57E-02,9.54E-02,0.293929423
994,1.38E-02,0.015830142,4.68E-02,9.65E-02,0.290971333
995,0.012811037,0.015288941,4.10E-02,9.63E-02,0.293238193
996,1.32E-02,1.67E-02,4.76E-02,9.79E-02,0.298557929
997,1.19E-02,1.61E-02,4.43E-02,0.094246654,0.293499693
998,1.60E-02,1.81E-02,4.56E-02,9.67E-02,0.293599042
999,1.09E-02,1.53E-02,4.24E-02,9.42E-02,0.291830295
1000,1.14E-02,1.99E-02,4.35E-02,9.63E-02,0.290787241
1001,0.013466631,1.56E-02,4.66E-02,9.40E-02,0.295995458
1002,1.38E-02,2.00E-02,4.43E-02,9.46E-02,0.294135527
1003,1.58E-02,1.94E-02,4.73E-02,9.65E-02,0.296880625
1004,1.02E-02,1.45E-02,4.26E-02,9.45E-02,0.292446124
1005,1.53E-02,2.08E-02,4.57E-02,9.50E-02,0.292452734
1006,9.03E-03,1.49E-02,4.05E-02,9.26E-02,0.292844924
1007,1.26E-02,1.48E-02,4.26E-02,9.21E-02,0.292503287
1008,1.30E-02,1.71E-02,4.32E-02,9.31E-02,0.295023462
1009,1.37E-02,1.42E-02,4.16E-02,0.090884244,0.293507255
1010,1.33E-02,1.78E-02,4.57E-02,9.12E-02,0.291129922
1011,1.24E-02,1.67E-02,0.041984439,9.17E-02,0.292423024
1012,1.42E-02,1.97E-02,4.58E-02,9.31E-02,0.296907149
1013,1.10E-02,1.68E-02,4.39E-02,9.27E-02,0.301695094
1014,1.29E-02,1.85E-02,4.45E-02,9.45E-02,0.293563615
1015,1.55E-02,1.80E-02,4.74E-02,9.53E-02,0.293880755
1016,1.26E-02,1.63E-02,3.98E-02,9.13E-02,0.285283105
1017,1.40E-02,0.014909364,4.59E-02,9.03E-02,0.290645285
1018,1.69E-02,2.04E-02,4.06E-02,9.30E-02,0.293468161
1019,0.012036202,1.90E-02,4.34E-02,9.01E-02,0.302149228
1020,0.015404352,1.51E-02,4.43E-02,9.10E-02,0.289270327
1021,0.011784577,1.30E-02,4.44E-02,8.95E-02,0.288064397
1022,1.36E-02,1.78E-02,4.60E-02,9.53E-02,0.28697773
1023,1.26E-02,1.45E-02,4.41E-02,8.87E-02,0.293116963
1024,1.66E-02,2.03E-02,4.25E-02,9.06E-02,0.295594194
1025,1.48E-02,1.72E-02,4.32E-02,9.08E-02,0.29549075
1026,9.76E-03,1.08E-02,3.70E-02,8.47E-02,0.289485227
1027,1.58E-02,2.12E-02,4.46E-02,8.85E-02,0.29207521
1028,9.99E-03,1.50E-02,4.24E-02,8.82E-02,0.293545371
1029,9.63E-03,1.70E-02,4.27E-02,8.83E-02,0.292159338
1030,9.89E-03,1.50E-02,4.34E-02,8.78E-02,0.288645459
1031,1.00E-02,1.06E-02,3.90E-02,8.14E-02,0.286445662
1032,1.37E-02,1.84E-02,0.042427743,8.82E-02,0.291570217
1033,1.70E-02,1.56E-02,4.50E-02,8.81E-02,0.297225409
1034,8.94E-03,1.21E-02,4.32E-02,8.52E-02,0.288946008
1035,1.14E-02,1.71E-02,4.68E-02,0.088622076,0.291111109
1036,8.06E-03,1.45E-02,4.38E-02,9.20E-02,0.288619832
1037,1.31E-02,1.77E-02,0.036385299,8.58E-02,0.296214843
1038,1.18E-02,1.36E-02,4.05E-02,8.89E-02,0.291298992
1039,1.18E-02,1.54E-02,4.02E-02,8.43E-02,0.287408958
1040,1.41E-02,1.98E-02,4.19E-02,0.085043103,0.296252718
1041,1.26E-02,1.53E-02,4.10E-02,9.12E-02,0.282902974
1042,1.26E-02,1.32E-02,3.97E-02,7.82E-02,0.281695044
1043,1.08E-02,1.42E-02,4.10E-02,8.57E-02,0.289467922
1044,1.06E-02,1.74E-02,4.70E-02,8.36E-02,0.28309597
1045,8.21E-03,0.017336723,3.95E-02,8.76E-02,0.287385822
1046,6.77E-03,1.69E-02,3.98E-02,8.38E-02,0.283744623
1047,1.68E-02,2.10E-02,0.046734861,8.27E-02,0.292889342
1048,9.44E-03,1.46E-02,4.26E-02,8.05E-02,0.284861255
1049,1.70E-02,0.020628397,3.98E-02,8.36E-02,0.28165878
1050,6.12E-03,1.16E-02,4.34E-02,8.23E-02,0.290770365
1051,8.45E-04,9.13E-03,3.70E-02,7.63E-02,0.274942284
1052,1.51E-02,1.84E-02,4.94E-02,0.089011796,0.293998749
1053,1.14E-02,1.87E-02,0.035142265,7.70E-02,0.291181275
1054,1.17E-02,1.44E-02,0.046382552,8.42E-02,0.287738038
1055,1.66E-02,2.26E-02,4.76E-02,8.85E-02,0.281180671
1056,3.34E-03,0.012973079,3.78E-02,8.12E-02,0.282622282
1057,1.06E-02,0.014495113,4.06E-02,8.59E-02,0.286968104
1058,2.15E-02,0.023775499,4.15E-02,9.57E-02,0.285997694
1059,1.08E-02,2.17E-03,4.03E-02,7.85E-02,0.280893063
1060,1.57E-02,1.96E-02,4.26E-02,8.63E-02,0.29441888
1061,2.59E-03,0.012469228,3.86E-02,8.38E-02,0.267194245
1062,1.55E-02,7.96E-03,3.89E-02,8.54E-02,0.28544387
1063,1.22E-02,0.020380986,3.80E-02,0.076935899,0.278175936
1064,1.19E-02,1.37E-02,3.62E-02,8.14E-02,0.283205426
1065,1.50E-02,1.30E-02,3.66E-02,7.63E-02,0.279107077
1066,1.23E-02,2.09E-02,4.25E-02,8.24E-02,0.290350426
1067,7.53E-03,2.10E-03,2.94E-02,8.35E-02,0.277674336
1068,1.77E-02,2.83E-02,4.50E-02,8.64E-02,0.29010798
1069,1.67E-02,2.14E-02,4.94E-02,8.68E-02,0.287909009
1070,1.79E-02,2.18E-02,4.34E-02,0.084857288,0.275479175
1071,1.30E-02,2.51E-02,4.11E-02,8.47E-02,0.290558754
1072,1.82E-02,2.04E-02,4.26E-02,7.23E-02,0.279309589
1073,1.35E-02,1.66E-02,4.51E-02,9.27E-02,0.279985457
1074,1.65E-02,5.98E-03,4.06E-02,7.18E-02,0.263835244
1075,2.13E-02,2.32E-02,3.85E-02,8.54E-02,0.293179308
1076,1.37E-02,1.39E-02,0.046664294,0.074077023,0.285649772
1077,0.011203658,2.00E-02,0.0510685,8.87E-02,0.285188064
1078,7.77E-03,1.42E-02,3.94E-02,7.61E-02,0.262577408
1079,1.84E-02,0.011093834,4.92E-02,8.86E-02,0.277829407
1080,1.32E-02,1.93E-02,4.72E-02,8.31E-02,0.271209419
1081,2.26E-02,2.30E-02,5.33E-02,0.103476146,0.285645777
1082,1.33E-02,2.78E-02,0.051643763,8.66E-02,0.28293805
1083,0.017483817,1.84E-02,4.11E-02,7.47E-02,0.275169575
1084,8.58E-03,2.48E-02,4.68E-02,8.36E-02,0.287325981
1085,0.013883149,8.21E-03,3.34E-02,8.15E-02,0.282355786
1086,2.35E-02,3.32E-02,4.71E-02,8.75E-02,0.281037577
1087,1.33E-02,1.90E-02,4.87E-02,9.18E-02,0.292104333
1088,6.81E-03,1.10E-02,3.34E-02,5.82E-02,0.265880794
1089,1.58E-02,3.08E-02,4.98E-02,0.094660126,0.292050746
1090,1.48E-02,2.29E-02,3.02E-02,8.13E-02,0.278998715
1091,2.11E-02,1.58E-02,6.12E-02,7.57E-02,0.308906098
1092,4.22E-03,3.20E-02,3.60E-02,7.87E-02,0.247683667
1093,2.67E-02,2.85E-02,6.13E-02,9.11E-02,0.312688729
1094,1.11E-02,3.62E-02,4.93E-02,9.14E-02,0.273703117
1095,9.95E-03,-1.32E-03,3.82E-02,7.25E-02,0.273513964
1096,4.10E-03,-5.48E-03,4.56E-02,7.51E-02,0.2618738
1097,2.58E-02,1.63E-02,4.42E-02,9.09E-02,0.298361078
1098,-4.23E-03,-4.90E-04,0.035875167,7.80E-02,0.271040454
1099,1.40E-02,2.18E-02,5.74E-02,7.62E-02,0.258383641
1100,1.21E-02,1.32E-02,0.036348795,7.58E-02,0.267915287
